Wavelength nm.	BNA_Leitura_R_Ar_1_correct	BNA_Leitura_R_Ar_1_ext	BNA_Leitura_R_Branco_1	BNA_Leitura_R_Branco_1_ext	BNA_Leitura_T_Ar_1	BNA_Leitura_T_Ar_1_ext	BNA_Leitura_T_Branco_1	BNA_Leitura_T_Branco_1_ext	BNA_R_Amostra_02_02_SET2025_errado	BNA_R_Amostra_02_02_SET2025_ext	BNA_R_Amostra_03_02_SET2025_errado	BNA_R_Amostra_03_02_SET2025_ext	BNA_R_Amostra_05_02_SET2025_errado	BNA_R_Amostra_05_02_SET2025_ext	BNA_R_Amostra_06_02_SET2025	BNA_R_Amostra_06_02_SET2025_ext	BNA_T_Amostra_02_02_SET2025	BNA_T_Amostra_02_02_SET2025_ext	BNA_T_Amostra_03_02_SET2025	BNA_T_Amostra_03_02_SET2025_ext	BNA_T_Amostra_05_02_SET2025	BNA_T_Amostra_05_02_SET2025_ext	BNA_T_Amostra_06_02_SET2025_ext
220,00	100,129783	99,854600	37,742242	35,638425	99,740130	100,187945	1,449084	2,204508	23,203142	5,868704	28,649572	7,119536	26,787394	8,407998	8,724239	8,695218	0,601943	0,387241	0,582407	0,496563	0,687949	0,788500	0,833864
222,00	99,472243	99,797171	37,462112	35,689294	99,780130	100,245619	1,435595	2,240357	23,610358	6,105476	28,867039	7,369196	27,123746	8,733287	8,951629	8,993569	0,643492	0,410165	0,597668	0,518961	0,733535	0,860215	0,874347
224,00	100,207794	100,039220	37,673065	35,721210	99,554926	99,964452	1,444411	2,271059	24,094243	6,309764	29,180437	7,620878	27,573249	9,122229	9,225813	9,223901	0,730646	0,453105	0,650708	0,559434	0,785695	0,911149	0,886157
226,00	100,218749	100,045335	37,556672	35,856140	99,815208	99,801654	1,443098	2,330982	24,643883	6,513141	29,556486	7,996137	27,914420	9,482002	9,542964	9,512307	0,771108	0,503432	0,697211	0,618119	0,847071	0,948035	0,952305
228,00	99,958152	99,986613	37,702248	35,926369	100,017989	99,921250	1,496902	2,370804	25,145173	6,741350	29,872748	8,156863	28,543520	9,837480	9,778057	9,766491	0,812949	0,535603	0,725626	0,670434	0,858883	1,026032	1,015749
230,00	100,081944	99,701381	38,033068	36,244568	99,976104	99,542928	1,553575	2,509256	25,597697	7,100713	30,559939	8,558625	28,880841	10,346957	10,234024	10,049196	0,790993	0,566543	0,728090	0,753063	0,879950	1,046364	1,076559
232,00	99,937111	100,426233	38,174361	36,689109	100,305164	100,291276	1,602913	2,563654	25,912103	7,553724	31,096950	9,038724	29,522693	10,929500	10,432482	10,496077	0,767823	0,619108	0,703023	0,801603	0,877093	1,048252	1,120898
234,00	99,964738	99,789310	38,447607	37,064821	99,811530	99,966794	1,640328	2,743635	26,363546	7,940623	31,414986	9,553827	30,175573	11,452525	10,921626	10,750914	0,719285	0,651999	0,680486	0,861422	0,854244	1,022938	1,206999
236,00	100,147569	99,793291	38,821992	37,253484	99,754030	99,794668	1,701990	2,858350	26,958299	8,417244	31,981802	10,043039	30,817756	12,130822	11,317259	11,211636	0,690058	0,714513	0,664904	0,955500	0,832497	1,046552	1,286829
238,00	99,965608	100,236118	39,272082	37,708724	100,293791	99,952263	1,809173	2,950116	27,302653	8,968403	32,510197	10,644177	31,494662	12,852931	11,661310	11,474362	0,625657	0,753875	0,635522	1,019305	0,821116	1,062600	1,364350
240,00	100,169516	100,176346	39,420444	38,252717	99,955904	100,046492	1,850075	3,165623	27,770305	9,356156	33,001816	11,147329	31,844380	13,502835	11,890224	11,688413	0,575689	0,839592	0,633471	1,081746	0,866125	1,087656	1,446347
242,00	100,182176	99,622518	39,949140	38,540217	100,207031	99,902934	1,965882	3,315382	28,047517	9,719358	33,337072	11,446502	32,279456	13,970071	12,115537	11,895444	0,597149	0,907301	0,637062	1,125067	0,895710	1,155163	1,528916
244,00	99,940526	99,818683	40,199649	38,831320	99,852663	100,117719	2,058834	3,504242	28,472733	10,126359	33,503351	11,745816	32,595822	14,329863	12,225070	12,130807	0,581950	0,950347	0,630864	1,230273	0,899081	1,200650	1,639717
246,00	100,346375	99,908209	40,755489	39,457685	99,830705	100,061154	2,151556	3,671307	28,790018	10,379782	34,014252	11,924069	32,981595	14,456667	12,398759	12,241654	0,590527	1,017872	0,657802	1,275819	0,938087	1,271077	1,732578
248,00	99,812680	100,064433	41,014427	39,815193	99,975181	99,842536	2,267583	3,821578	28,924638	10,735644	34,152451	12,019840	33,280364	14,626755	12,294524	12,447984	0,617168	1,052681	0,688630	1,367480	0,992695	1,325433	1,824224
250,00	100,069237	100,218821	41,610420	40,262604	100,213039	99,863034	2,428301	4,113049	29,371402	10,916805	34,576023	12,099928	33,628932	14,684735	12,404663	12,750988	0,653709	1,148792	0,706897	1,460810	1,027359	1,384893	1,970622
252,00	99,925405	99,672836	41,987389	40,682346	100,156617	100,103092	2,554884	4,321497	29,638094	11,145620	34,912258	12,155693	33,774295	14,608774	12,412351	12,858976	0,680163	1,228039	0,729445	1,563996	1,078362	1,460573	2,080357
254,00	99,814641	100,051594	42,505050	41,338402	99,762815	99,930429	2,782557	4,609798	29,896060	11,379469	35,184735	12,271085	34,133580	14,630523	12,464382	13,162962	0,694885	1,301970	0,773507	1,662436	1,116433	1,536991	2,225215
256,00	100,001264	100,262570	43,444636	42,079282	99,859804	100,198615	2,975897	4,871859	30,231324	11,663109	35,682356	12,340771	34,632769	14,686024	12,523174	13,417678	0,741062	1,406475	0,795762	1,786080	1,211052	1,650736	2,399749
258,00	99,965250	100,080085	44,298828	42,656940	100,017512	100,056791	3,225338	5,202173	30,651712	11,894371	36,067271	12,441029	35,023555	14,706481	12,636767	13,611798	0,762312	1,486703	0,826060	1,912058	1,263049	1,745093	2,589169
260,00	100,384104	99,975264	45,237908	43,418804	100,163412	100,003064	3,496416	5,555705	31,069842	12,153580	36,523801	12,417392	35,462818	14,689450	12,728901	13,900103	0,815715	1,591110	0,853257	2,051419	1,340141	1,864311	2,827997
262,00	99,852693	99,971288	46,030375	44,146004	100,058389	100,082338	3,799748	5,936692	31,222048	12,448890	36,904290	12,561898	35,840264	14,812462	12,854421	14,218760	0,855290	1,711266	0,918388	2,210361	1,413963	2,016247	3,084429
264,00	100,070035	99,967402	47,033027	45,032215	99,922609	99,824679	4,143444	6,307625	31,497142	12,658630	37,474668	12,674837	36,464456	14,974517	13,039111	14,513284	0,898637	1,821712	0,950991	2,381093	1,507491	2,145666	3,317375
266,00	99,876076	99,985665	48,034027	45,767558	100,011671	100,008309	4,523380	6,753450	31,947386	12,952140	38,124883	12,782434	37,092495	15,067606	13,269469	14,871249	0,942971	1,962504	1,024130	2,560817	1,613691	2,347688	3,592261
268,00	99,977994	99,979436	49,222255	46,688887	100,148356	100,005746	4,999012	7,206979	32,448143	13,217519	38,890085	12,995365	37,841347	15,303200	13,562039	15,272604	1,030196	2,109813	1,100094	2,783663	1,766281	2,512891	3,936370
270,00	99,907160	99,908566	50,392002	47,604832	100,137985	100,086212	5,456477	7,681514	33,107889	13,515881	39,603770	13,119851	38,627464	15,546970	13,776052	15,668412	1,093093	2,309968	1,210580	3,021255	1,866929	2,716417	4,250431
272,00	99,893641	100,213063	51,517457	48,625046	100,225711	100,104988	5,975873	8,188274	33,839971	13,831405	40,550628	13,307098	39,425683	15,773769	14,033894	16,087197	1,194205	2,505929	1,334019	3,301599	2,055739	2,936198	4,645224
274,00	100,110161	99,918097	53,000730	49,590671	100,123036	99,828178	6,573859	8,621816	34,799919	14,215618	41,684249	13,529973	40,510970	16,054735	14,458425	16,449432	1,317585	2,692204	1,483561	3,542094	2,243634	3,186242	5,047918
276,00	99,966139	100,200164	54,323930	50,591820	99,983525	100,092483	7,118576	9,167138	35,998353	14,585838	42,911744	13,701808	41,540763	16,319865	14,831388	16,953665	1,434022	2,966208	1,657780	3,867218	2,468338	3,481559	5,469032
278,00	99,989718	99,975085	55,646122	51,428753	99,861312	99,931961	7,767038	9,750325	36,974889	14,865042	44,082657	14,021885	42,593297	16,684060	15,216406	17,394885	1,583576	3,219727	1,846378	4,219793	2,694829	3,799851	5,941118
280,00	99,807620	100,078464	57,063812	52,528995	100,100434	100,189698	8,474833	10,368682	38,091069	15,258256	45,486623	14,330177	43,923119	17,141892	15,586390	17,899838	1,736572	3,512990	2,081520	4,561605	2,973148	4,149113	6,400225
282,00	100,113440	99,921173	58,534962	53,593230	100,147974	99,835449	9,160601	10,880997	39,400578	15,597062	46,741664	14,674917	45,144069	17,588350	16,081278	18,385160	1,893433	3,819571	2,348812	4,925635	3,253153	4,478731	6,848961
284,00	99,957824	100,024986	59,645194	54,511583	100,057507	99,877304	9,814742	11,486325	40,877655	16,109870	48,153201	14,998741	46,403617	18,140192	16,555768	18,880543	2,104760	4,175346	2,638791	5,339582	3,597562	4,878701	7,405809
286,00	100,007463	100,121140	61,067200	55,523527	99,958920	100,044060	10,561717	12,069263	42,420608	16,599463	49,682677	15,600386	47,818923	18,798022	17,129481	19,447608	2,381441	4,575333	2,983726	5,861976	3,976997	5,323155	7,890265
288,00	99,993432	100,089025	62,372839	56,704891	100,072348	99,915886	11,316235	12,690830	44,129199	17,128129	51,289201	16,150066	49,314550	19,724569	17,793185	19,959816	2,705107	5,020412	3,387167	6,262264	4,402643	5,878143	8,425938
290,00	100,158572	100,022554	63,631654	57,429898	100,062764	99,784690	12,072450	13,359065	45,769405	17,715874	52,548623	16,692698	50,647664	20,559992	18,433164	20,467468	3,074870	5,527390	3,866313	6,805936	4,875512	6,356456	8,949360
292,00	99,887252	99,962693	64,731598	58,373266	99,856931	99,971420	12,726524	13,974184	47,322530	18,288027	53,739810	17,427783	52,106994	21,559481	19,108501	21,044283	3,483421	5,997770	4,346627	7,303564	5,377755	7,007192	9,500827
294,00	100,193059	99,963903	65,893137	59,411776	99,852049	99,741536	13,425194	14,624552	48,909870	19,042869	55,160809	18,290451	53,426147	22,683209	19,886260	21,566945	3,910538	6,540236	4,859900	7,875812	5,955222	7,620984	9,961538
296,00	99,957293	100,176489	66,871798	60,351074	100,056505	99,903905	14,086667	15,261501	50,358272	19,696313	56,304365	19,018283	54,694253	23,846816	20,567903	22,163863	4,449040	7,080006	5,404143	8,429997	6,505688	8,243234	10,479110
298,00	100,102437	100,116408	67,736328	61,150646	99,914050	100,151312	14,787525	15,891784	51,455700	20,332211	57,255691	19,755143	55,690765	24,959737	21,300377	22,713146	4,874267	7,614867	5,876496	8,948626	7,011871	8,876821	11,033586
300,00	99,908167	99,815750	68,519866	61,719513	99,971604	99,969858	15,330094	16,585658	52,330345	20,760170	58,145028	20,280509	56,602407	25,731614	21,898121	23,067291	5,297057	8,019239	6,296600	9,379643	7,487482	9,429483	11,444309
302,00	99,916518	100,220346	69,354331	62,718183	100,048769	99,935895	15,910916	17,252892	53,136539	21,285850	58,775598	20,933595	57,388198	26,635039	22,465520	23,479906	5,680377	8,485440	6,633636	9,840494	7,924153	9,961616	11,875012
304,00	100,270343	100,068176	70,212257	63,642639	100,042462	99,839836	16,489357	17,833655	53,809434	21,722755	59,498149	21,295434	58,113092	27,172971	22,934745	24,005793	5,961795	8,884829	6,992517	10,244825	8,345465	10,417379	12,261300
306,00	99,747926	99,844569	70,791155	64,270055	100,022578	100,232458	16,948147	18,549685	54,059511	22,048499	59,859788	21,655227	58,652496	27,755433	23,261642	24,342151	6,294200	9,236947	7,210258	10,612817	8,700666	10,882993	12,703623
308,00	100,141490	100,235939	71,463048	64,916319	100,113523	99,932599	17,470178	19,197769	54,452270	22,428638	60,353661	22,076069	59,218293	28,242859	23,636575	24,746661	6,456487	9,488717	7,372683	10,997730	8,959282	11,240860	12,996510
310,00	99,956149	99,905032	71,584237	65,511668	100,107074	99,923551	17,892742	19,904518	54,414046	22,821656	60,382289	22,304748	59,296322	28,505167	23,896435	25,001302	6,656525	9,762100	7,521491	11,270490	9,184030	11,664055	13,384908
312,00	99,832654	100,152493	72,090417	66,243643	100,043118	99,874604	18,248451	20,487612	54,288113	23,202662	60,615396	22,584850	59,533435	28,866416	24,159046	25,405174	6,725950	10,042629	7,616378	11,570172	9,349737	11,914430	13,715239
314,00	100,320649	99,869514	72,655845	66,712034	99,860471	100,358641	18,611470	21,265975	54,452240	23,488067	60,883898	22,690907	59,849447	29,088864	24,498247	25,573629	6,847516	10,291630	7,699437	11,837727	9,585924	12,260446	14,071468
316,00	99,916708	99,886817	72,729653	67,201024	100,168717	100,020003	18,907240	21,807389	53,997153	23,830089	60,659128	22,934493	59,775782	29,231963	24,665910	25,961953	6,893703	10,484865	7,720433	12,098812	9,663298	12,451369	14,290842
318,00	99,847108	99,892825	73,035067	67,956716	99,800891	99,695325	19,142909	22,435406	53,836441	24,112394	60,812998	23,113403	59,821403	29,456985	24,850294	26,236299	6,886403	10,645643	7,648852	12,371762	9,804244	12,681356	14,579181
320,00	99,861467	99,973387	73,220205	68,470836	99,891454	99,888575	19,459355	23,039337	53,794825	24,500647	60,867614	23,209968	60,039127	29,519716	25,069156	26,640624	6,993845	10,852303	7,667376	12,483092	9,882623	12,917602	14,845785
322,00	99,994767	99,811935	73,248720	68,759382	99,799925	99,997145	19,700462	23,704275	53,442001	24,705943	60,587662	23,229550	59,796178	29,594865	25,208938	26,906967	6,914475	11,097921	7,660628	12,785336	10,018510	13,082738	15,131520
324,00	99,937528	99,960029	73,345953	69,250405	100,055456	100,228012	19,926240	24,469170	52,999449	24,962707	60,419440	23,309179	59,813762	29,492006	25,263968	27,040812	6,948166	11,153109	7,669933	12,899077	10,176070	13,374664	15,289620
326,00	99,999785	100,264287	73,700953	69,752836	99,993593	100,241196	20,096354	24,921869	52,908367	25,436342	60,523587	23,383984	59,925961	29,591081	25,510293	27,406776	6,921801	11,360870	7,642847	13,143237	10,208737	13,531680	15,532349
328,00	99,931055	100,163591	73,656636	70,084691	99,960345	100,320637	20,298824	25,407344	52,718371	25,506559	60,440588	23,423132	59,718889	29,624146	25,514793	27,518344	6,925341	11,499603	7,671545	13,316445	10,306159	13,691095	15,776096
330,00	99,974650	99,879611	73,886633	70,525140	99,926054	99,875379	20,419718	25,769496	52,624786	25,769037	60,552531	23,384538	59,808975	29,534984	25,758272	27,901396	6,939783	11,572502	7,694971	13,461411	10,359118	13,787466	15,911204
332,00	99,903506	100,258756	73,818541	70,755333	99,923879	99,908859	20,573594	26,260039	52,677375	26,053667	60,418808	23,366654	59,936392	29,455522	25,780150	28,140673	6,944449	11,637732	7,685692	13,571550	10,442627	13,899982	16,157645
334,00	100,165844	100,170386	74,085307	71,098661	99,924475	100,035179	20,640616	26,785141	52,439445	26,215708	60,533482	23,346876	59,784561	29,535767	25,841060	28,301030	6,949130	11,806437	7,785536	13,722080	10,545173	14,074025	16,445932
336,00	99,994522	99,916786	73,835218	71,063179	99,812853	99,972284	20,720272	27,073422	52,609509	26,288727	60,496402	23,374163	59,833896	29,358575	25,926477	28,573722	6,975375	11,907239	7,864933	13,900639	10,566524	14,219676	16,547742
338,00	100,059497	99,941462	73,965615	71,219027	100,094247	99,867094	20,838574	27,417639	52,833223	26,501220	60,674053	23,322356	59,955716	29,390478	26,038077	28,777960	7,118231	12,109345	8,044714	14,056872	10,746086	14,298999	16,686468
340,00	99,881953	100,096679	73,776919	71,393740	99,905741	99,871135	20,972094	27,773038	53,215408	26,691043	60,838085	23,496647	60,138178	29,443982	26,176661	28,996456	7,222274	12,266612	8,295203	14,183985	10,920609	14,539875	16,872163
342,00	100,123787	100,205112	73,587275	71,546727	100,017095	100,057805	21,054749	28,087476	53,802335	27,095628	61,078060	23,654985	60,414016	29,559484	26,284921	29,250640	7,446808	12,504844	8,598163	14,463170	11,096780	14,652200	17,047468
344,00	100,198054	99,901915	73,698241	71,582186	99,965453	99,894524	21,078695	28,323907	54,626507	27,328441	61,565727	23,782392	60,638511	29,635158	26,461703	29,456055	7,794090	12,804675	9,049726	14,685948	11,400077	14,914972	17,239402
346,00	100,000679	99,976176	73,587680	71,640098	100,089657	100,109267	21,132073	28,637025	55,483383	27,599096	62,047553	24,023160	61,200118	29,886129	26,680419	29,668903	8,175926	13,132702	9,557148	14,914405	11,737181	15,116319	17,403537
348,00	99,954081	99,891245	73,633504	71,630269	100,072885	99,955159	21,318839	28,811538	56,533998	27,860236	62,452680	24,221705	61,602306	30,119586	26,813444	29,780439	8,542616	13,402344	10,156703	15,138921	12,011141	15,344258	17,626022
350,00	99,984688	99,820083	73,485571	71,882230	99,947810	100,014555	21,334787	29,002276	57,361042	28,210095	62,936658	24,392092	61,989015	30,324975	26,976812	30,096877	8,924655	13,761215	10,684404	15,344012	12,332024	15,574001	17,654882
352,00	99,906230	99,989450	73,406684	71,873605	100,064838	100,020468	21,374564	29,151636	58,097678	28,533629	63,292390	24,627984	62,187219	30,542788	27,125162	30,246222	9,252389	14,047877	11,165840	15,582989	12,578197	15,779433	17,843096
354,00	100,005245	100,106025	73,337328	71,933442	99,940079	99,922091	21,448249	29,308081	58,673012	28,778404	63,509589	24,793087	62,477201	30,601677	27,267817	30,460328	9,478424	14,261054	11,574782	15,732372	12,811583	15,967163	17,982478
356,00	99,936455	100,082648	73,383039	71,790534	99,880975	99,960589	21,482174	29,450896	59,126920	28,961411	63,747710	24,851075	62,769943	30,750057	27,367750	30,596220	9,662210	14,440596	11,886869	15,928227	12,986462	16,088364	18,161391
358,00	100,089931	100,048566	73,178464	71,866113	99,916756	100,007010	21,510044	29,577327	59,354657	29,137468	63,890582	24,926104	62,787747	30,743861	27,449292	30,812761	9,796558	14,562404	12,123437	16,062160	13,113688	16,218624	18,263176
360,00	99,844915	99,892950	72,942901	71,688670	100,011110	100,060344	21,575932	29,718524	59,436089	29,236874	63,892531	24,915691	62,758249	30,764085	27,579838	31,095910	9,907421	14,725398	12,317270	16,221204	13,291383	16,365002	18,411745
362,00	100,038517	99,937487	72,971934	71,635610	99,950200	100,164652	21,649803	29,869425	59,623438	29,434392	63,933277	24,942407	62,826556	30,573219	27,626130	31,239530	9,944949	14,873233	12,414095	16,392735	13,319954	16,514252	18,618597
364,00	100,059831	99,915540	72,917837	71,618390	99,882638	100,018179	21,657446	29,952383	59,694237	29,585811	63,855946	24,983051	62,867379	30,570060	27,691534	31,430772	9,986339	14,959030	12,533483	16,478701	13,328739	16,544633	18,723188
366,00	99,838370	99,847007	72,797322	71,401626	100,071883	99,910104	21,701048	30,070326	59,713489	29,611769	63,884211	24,883357	62,792724	30,406299	27,714297	31,647801	10,020400	15,014285	12,640908	16,553229	13,442177	16,652280	18,869555
368,00	99,983031	99,907374	72,840029	71,471781	99,817842	100,003183	21,721478	30,173230	59,781259	29,687411	64,021957	24,858865	62,928271	30,251107	27,874073	31,807107	10,012974	15,114769	12,741309	16,702002	13,498175	16,724370	18,993318
370,00	99,900079	99,888223	72,695076	71,337503	100,077379	100,140500	21,809450	30,268121	59,799433	29,766384	63,858026	24,799481	62,881500	30,181968	27,932382	32,032815	10,064432	15,157585	12,786634	16,835487	13,560705	16,819638	19,140197
372,00	99,967653	100,085151	72,492880	71,408963	100,165331	100,086927	21,843821	30,327055	59,857231	29,769593	63,842386	24,757069	62,820464	30,038777	28,047252	32,331893	10,043509	15,222648	12,898581	16,880006	13,629892	16,884227	19,249535
374,00	99,965417	100,139582	72,535187	71,322829	99,879676	99,851143	21,870089	30,383012	59,974742	30,001405	63,902545	24,488345	62,960041	29,746097	27,878180	32,522157	9,967992	15,206581	12,923524	16,970778	13,613452	16,884077	19,465156
376,00	100,102007	100,000119	72,418958	71,103507	100,031900	99,938172	21,917377	30,445406	60,124618	30,029047	63,938487	24,363594	62,980026	29,467252	27,893072	32,752946	9,949291	15,281120	13,047658	17,074127	13,656537	16,946200	19,609265
378,00	99,995196	99,983859	72,288924	71,101588	100,037622	100,064242	22,007793	30,590758	60,181403	30,030748	63,983828	24,221416	62,894261	29,303411	27,963319	32,990876	9,940978	15,309455	13,083793	17,174028	13,683727	17,022628	19,771524
380,00	99,974978	100,004613	72,229117	71,089137	99,945140	99,974132	22,007994	30,678383	60,216075	30,145231	63,854057	24,099264	62,848967	29,168260	27,946264	33,223286	9,911260	15,366629	13,127625	17,256512	13,715599	17,075044	19,946975
382,00	100,009990	99,889845	72,131467	70,950389	99,997085	99,973923	22,046517	30,687058	60,330063	30,105898	63,869774	24,036284	62,785238	28,965178	28,055990	33,410579	9,953354	15,384497	13,197364	17,353787	13,782059	17,105204	20,073868
384,00	99,932182	100,040340	72,047013	70,952588	100,017405	100,010288	22,087856	30,793449	60,316437	30,263928	63,832903	24,050815	62,861341	28,983518	28,180671	33,711347	9,961607	15,451717	13,290501	17,462078	13,859051	17,218156	20,243686
386,00	99,966544	99,912202	72,019362	70,897120	100,040030	99,978006	22,181076	30,851030	60,414898	30,307779	63,868421	24,006982	62,785310	28,888524	28,284588	33,927649	9,979810	15,517768	13,391866	17,566563	13,907161	17,245540	20,390251
388,00	99,986476	100,037587	71,944135	70,821351	100,127876	99,960250	22,217512	30,896968	60,508573	30,433336	63,845181	23,955244	62,935024	28,833887	28,425774	34,200278	10,008049	15,631686	13,452722	17,680508	13,996956	17,349611	20,560059
390,00	100,006294	100,075877	71,785116	70,836061	100,004804	99,997103	22,262238	30,985704	60,588586	30,547595	63,766128	24,003220	62,839264	28,790304	28,579012	34,532723	10,046497	15,719500	13,511200	17,836708	14,000085	17,444772	20,744887
392,00	99,978346	99,919909	71,736467	70,658439	99,962622	100,010824	22,259426	31,058761	60,662478	30,605707	63,808930	23,976257	62,889493	28,742507	28,720617	34,750545	10,047067	15,773262	13,595843	17,934431	14,098983	17,527302	20,905282
394,00	100,072205	100,005281	71,728194	70,590419	100,071836	99,889159	22,328071	31,100276	60,752642	30,699441	63,869041	23,952271	62,920171	28,718704	28,861576	34,945956	10,088026	15,858348	13,695100	18,038477	14,184004	17,632578	21,042758
396,00	100,035310	100,008607	71,701682	70,529497	100,028539	99,997365	22,375441	31,176934	60,842437	30,839720	63,789773	24,020858	62,942481	28,687119	28,977203	35,244238	10,094170	15,956807	13,790682	18,162498	14,234079	17,700595	21,177244
398,00	100,014448	99,985588	71,603656	70,455533	100,093544	100,075471	22,403900	31,281728	60,822392	30,863267	63,786346	23,968883	62,883919	28,601795	29,024792	35,471687	10,089279	16,011433	13,876419	18,302068	14,293982	17,768031	21,396105
400,00	100,016832	99,956530	71,488905	70,294660	100,025761	99,957812	22,427258	31,325036	60,884911	30,920875	63,740265	23,905830	62,899637	28,486279	29,117578	35,670078	10,045357	16,040936	13,916670	18,374473	14,298774	17,814849	21,508652
402,00	100,029981	99,944395	71,437871	70,262772	99,928123	100,008106	22,473174	31,358710	60,826808	30,898091	63,647467	23,796742	62,883192	28,321713	29,152027	35,901129	9,987631	16,089496	13,916333	18,439946	14,318655	17,865796	21,626750
404,00	100,022686	99,927384	71,319175	70,163476	100,080752	100,001907	22,526808	31,431416	60,834169	30,861351	63,659090	23,669735	62,800837	28,109556	29,157230	36,112979	9,930457	16,083618	13,911797	18,488239	14,307548	17,899324	21,781215
406,00	100,102699	99,957025	71,295053	70,134616	99,984938	100,020564	22,541337	31,474760	60,842997	30,791762	63,627470	23,523115	62,784511	27,848727	29,134381	36,337391	9,797659	16,025044	13,892405	18,512194	14,279816	17,835063	21,916363
408,00	100,079322	100,003433	71,261019	70,066118	100,146246	99,926710	22,570524	31,542045	60,793298	30,700657	63,557762	23,287310	62,719566	27,567047	29,070595	36,585721	9,677605	15,955316	13,873389	18,523414	14,245974	17,832588	22,031373
410,00	100,036967	99,970073	71,218580	69,992095	100,079417	99,998456	22,598439	31,551769	60,794592	30,547807	63,414949	23,026630	62,660044	27,193549	29,033810	36,757514	9,542044	15,880044	13,808504	18,550235	14,178653	17,767105	22,180937
412,00	100,069344	99,970937	71,150315	69,960386	100,047970	99,876136	22,647266	31,606793	60,770005	30,414635	63,425392	22,817913	62,595302	26,952919	28,942433	36,999330	9,431181	15,828921	13,753568	18,540283	14,136262	17,750961	22,337742
414,00	100,011837	99,920595	71,066689	69,829488	100,069284	99,975997	22,708897	31,694588	60,665917	30,365485	63,349408	22,621554	62,543422	26,670736	28,910929	37,134707	9,323039	15,779197	13,726266	18,581976	14,120097	17,749386	22,499076
416,00	100,080705	99,939811	70,993769	69,783515	99,921668	99,996108	22,686596	31,740075	60,706145	30,288380	63,363999	22,506596	62,500572	26,513144	28,971425	37,445161	9,269347	15,744521	13,732226	18,609138	14,090273	17,773812	22,615162
418,00	100,009739	99,992067	70,821261	69,774747	100,028265	100,022221	22,759265	31,801069	60,721254	30,318743	63,223767	22,446688	62,420386	26,412132	29,033792	37,756091	9,276543	15,766037	13,717765	18,692908	14,147687	17,780715	22,801524
420,00	99,987906	99,968743	70,795470	69,689322	100,031221	99,975717	22,781879	31,859553	60,810369	30,390981	63,194215	22,443593	62,430805	26,367763	29,178140	37,993461	9,273375	15,830272	13,784589	18,800358	14,198276	17,830808	22,948283
422,00	100,042772	100,019503	70,699292	69,540870	100,004458	100,029230	22,816129	31,891823	60,876226	30,483213	63,161683	22,475511	62,439966	26,386255	29,299393	38,268471	9,297750	15,868193	13,863379	18,901484	14,266257	17,896943	23,130642
424,00	100,051057	100,012171	70,642245	69,566518	100,062966	99,991107	22,849850	31,934926	60,923415	30,618939	63,172621	22,512318	62,445778	26,391506	29,459831	38,616619	9,314463	15,925518	13,976981	19,004381	14,370623	17,980787	23,291655
426,00	100,032640	99,972022	70,606101	69,417679	99,998891	99,994797	22,870453	31,961596	60,965073	30,710453	63,099480	22,580005	62,460804	26,391584	29,595643	38,863337	9,321642	15,976590	14,053476	19,111632	14,449121	18,048859	23,440665
428,00	100,072432	99,985564	70,582944	69,399095	100,004220	100,029016	22,937080	32,063279	61,078477	30,782142	63,160521	22,568560	62,489909	26,329902	29,715568	39,233151	9,323035	16,029418	14,104092	19,242677	14,503716	18,090057	23,636845
430,00	100,007606	99,961329	70,433635	69,269079	100,031292	100,047064	22,958380	32,087082	61,101699	30,801564	63,074118	22,530863	62,467843	26,182544	29,755804	39,463910	9,277406	16,042371	14,140090	19,319750	14,532405	18,128620	23,841836
432,00	100,033176	100,026512	70,448571	69,152170	99,978709	99,962378	22,973992	32,144728	61,152536	30,818909	63,052553	22,458237	62,517244	26,036781	29,824996	39,851034	9,215765	15,999821	14,148861	19,358981	14,534186	18,119137	23,986664
434,00	100,053716	100,033724	70,392591	69,133979	100,011301	100,050712	23,021665	32,169220	61,185908	30,892098	63,077712	22,349544	62,497777	25,862035	29,853728	40,200970	9,179769	15,958807	14,189295	19,448592	14,554761	18,120895	24,157195
436,00	100,092554	100,061345	70,255363	69,084477	99,934083	100,001025	23,026091	32,235318	61,191404	30,939925	63,010347	22,314458	62,452394	25,715664	29,925531	40,516362	9,133916	15,960431	14,203830	19,507855	14,559774	18,147728	24,328843
438,00	100,136161	100,039983	70,208097	69,044042	99,960935	99,993497	23,083189	32,276627	61,238664	31,086564	63,012397	22,344261	62,469637	25,697011	30,075976	40,890044	9,125222	15,964371	14,252022	19,594336	14,624743	18,205719	24,506821
440,00	100,045657	100,057340	70,082492	68,995416	99,991679	99,963188	23,103374	32,313472	61,270911	31,387067	62,966764	22,511964	62,427747	25,862280	30,326253	41,295502	9,200989	16,098651	14,373980	19,781156	14,753012	18,322302	24,662070
442,00	100,036955	100,050616	70,024276	68,911177	99,925369	100,044823	23,130807	32,371512	61,340719	31,842265	62,920046	22,895852	62,468970	26,232368	30,742085	41,665360	9,348705	16,350655	14,566623	20,024981	14,937183	18,545033	24,867228
444,00	100,024199	99,952894	69,949907	68,804151	99,901181	100,000989	23,143516	32,399160	61,339355	32,437572	62,959659	23,444153	62,498021	26,775575	31,337270	42,067227	9,577046	16,699228	14,855178	20,360149	15,215144	18,810917	25,042355
446,00	100,039828	100,028276	69,937134	68,741900	99,979365	100,023866	23,210894	32,464913	61,420006	33,239710	63,034654	24,259876	62,607151	27,649850	32,050896	42,594737	9,935401	17,189488	15,218700	20,760767	15,606871	19,193020	25,239077
448,00	100,025797	100,032043	69,861823	68,678927	99,958056	99,991000	23,216437	32,502928	61,511129	34,145543	63,037807	25,237814	62,644583	28,634250	32,836327	43,060389	10,330870	17,738815	15,635039	21,218689	15,994190	19,618025	25,415009
450,00	100,053096	100,072050	69,855100	68,671167	100,014317	99,981099	23,261252	32,560718	61,630708	35,137594	63,094455	26,308325	62,793654	29,650322	33,652183	43,546933	10,744565	18,363035	16,096646	21,715431	16,456459	20,105809	25,622588
452,00	100,059021	99,937975	69,724947	68,524289	99,981385	99,986941	23,282410	32,615334	61,683017	36,100972	63,201320	27,287349	62,853289	30,650616	34,421018	43,918896	11,165272	18,961044	16,529994	22,187614	16,862938	20,552336	25,787210
454,00	100,036085	99,968994	69,671088	68,509299	99,959254	100,049174	23,331390	32,670742	61,727262	37,018239	63,241541	28,267676	62,963337	31,643012	35,083690	44,392803	11,574838	19,538908	16,962139	22,641876	17,232059	20,956868	25,969380
456,00	100,104105	99,985659	69,675970	68,372446	99,968392	100,012755	23,354405	32,735947	61,836499	37,846506	63,304150	29,117471	63,056511	32,426703	35,704386	44,782937	11,918685	20,032965	17,333972	23,029503	17,579754	21,310300	26,156625
458,00	100,038993	99,942988	69,569105	68,401605	99,946135	99,969220	23,392849	32,723409	61,892509	38,536876	63,292414	29,819340	63,057989	33,090937	36,189216	45,130271	12,211446	20,442837	17,617641	23,351681	17,874211	21,601443	26,282963
460,00	100,073147	99,903888	69,490999	68,205804	99,934125	100,027514	23,402733	32,789457	61,908025	39,115128	63,301796	30,398205	63,084459	33,569345	36,600915	45,411739	12,466283	20,787820	17,869677	23,665686	18,105222	21,872787	26,437482
462,00	99,995542	99,889392	69,395918	68,186152	100,007439	99,970406	23,454779	32,836187	61,912096	39,605793	63,290191	30,885905	63,105357	34,002799	36,947194	45,734584	12,683235	21,075894	18,117410	23,902880	18,325624	22,070785	26,588425
464,00	100,029778	99,943167	69,405276	68,216813	99,987459	99,997419	23,485860	32,915384	62,008077	40,042862	63,332820	31,252542	63,170773	34,375989	37,267777	46,007690	12,839599	21,323277	18,344814	24,138428	18,521111	22,274742	26,740909
466,00	100,006402	100,021279	69,303042	68,181819	99,972421	99,987274	23,511949	32,977235	61,981297	40,452507	63,290846	31,602851	63,095129	34,692365	37,496865	46,328571	12,992880	21,542984	18,519001	24,389821	18,688136	22,470467	26,885924
468,00	100,044096	99,968702	69,315100	68,052793	99,945933	99,990290	23,544218	33,011842	61,963385	40,756977	63,303524	31,904763	63,149697	34,936818	37,849212	46,569142	13,142198	21,722472	18,703513	24,545875	18,879370	22,604924	27,015275
470,00	99,966139	100,055349	69,220728	68,056053	100,003040	99,981189	23,601279	33,080828	62,002808	41,075334	63,303071	32,229474	63,136309	35,169864	38,151029	46,838570	13,291804	21,910216	18,869537	24,717022	19,037274	22,786345	27,145624
472,00	100,066495	100,085998	69,155443	67,943591	99,977440	99,988985	23,605797	33,126050	62,025410	41,315329	63,274539	32,502425	63,182396	35,433072	38,434312	47,068873	13,411857	22,101659	19,008940	24,897839	19,201463	22,938974	27,288288
474,00	99,991155	100,091720	69,120616	67,944884	99,957192	100,026608	23,629995	33,180222	61,978674	41,658601	63,228106	32,785788	63,172090	35,700673	38,740593	47,317529	13,535462	22,281905	19,151454	25,080130	19,343445	23,075438	27,426559
476,00	100,038671	100,056195	69,120061	67,848390	99,965400	100,072515	23,679531	33,235595	61,975735	41,880494	63,239431	33,073938	63,159251	35,874671	39,027110	47,542703	13,659360	22,445135	19,287090	25,239846	19,502360	23,228237	27,571797
478,00	99,986768	100,055373	69,010544	67,812461	99,993634	100,039375	23,693080	33,255932	61,901063	42,147723	63,180274	33,375028	63,114083	36,092052	39,276236	47,780606	13,780844	22,581629	19,424826	25,404379	19,642583	23,361358	27,706265
480,00	100,013268	100,009525	68,989706	67,734450	100,016117	99,981201	23,726700	33,316544	61,866444	42,390144	63,149756	33,634809	63,140702	36,309066	39,544442	47,969422	13,891873	22,737134	19,552645	25,566822	19,813572	23,505798	27,818355
482,00	100,047338	100,035155	68,950701	67,646819	99,969172	100,018489	23,769665	33,352470	61,921537	42,644894	63,170177	33,897841	63,163126	36,517751	39,848533	48,223487	14,012410	22,914185	19,684321	25,717929	19,934598	23,632227	27,972472
484,00	100,032306	100,000393	68,912160	67,603946	99,985182	100,045824	23,802394	33,420527	61,909932	42,928699	63,104761	34,149045	63,128459	36,747372	40,052614	48,404011	14,138447	23,079327	19,818045	25,901103	20,065051	23,773472	28,088740
486,00	100,037801	100,025439	68,810129	67,537856	100,027108	100,050652	23,827587	33,426315	61,897331	43,187568	63,106775	34,422702	63,132489	36,947978	40,306041	48,651612	14,269722	23,258470	19,990292	26,073188	20,216994	23,919562	28,221214
488,00	100,042987	100,016630	68,807876	67,513365	100,084805	99,951136	23,874253	33,480185	61,798185	43,458411	63,090485	34,676403	63,127065	37,168607	40,512046	48,841575	14,411162	23,404399	20,155425	26,207012	20,389482	24,056149	28,323328
490,00	100,058413	99,985194	68,759048	67,454612	100,081778	99,968046	23,906894	33,539876	61,858523	43,722293	63,090473	34,977040	63,129544	37,402844	40,746003	49,070239	14,581028	23,560417	20,328727	26,358241	20,535873	24,220662	28,475964
492,00	100,105214	99,968076	68,656486	67,373353	99,978888	99,951243	23,911390	33,563510	61,802888	43,994582	63,055742	35,255116	63,121599	37,716162	41,009524	49,264932	14,739111	23,739731	20,469958	26,531631	20,680551	24,392402	28,615323
494,00	100,033534	99,987054	68,601573	67,365241	99,962008	100,023174	23,955856	33,643973	61,741519	44,304493	63,036340	35,562742	63,107806	38,012245	41,259015	49,484861	14,917643	23,909575	20,657478	26,686633	20,852417	24,565978	28,725266
496,00	100,002611	99,940336	68,539315	67,260599	99,999344	99,954492	23,984128	33,683205	61,704409	44,544932	63,046241	35,857210	63,100588	38,286746	41,540673	49,615979	15,133017	24,061777	20,868766	26,843926	21,036126	24,742326	28,827968
498,00	100,034261	99,999356	68,523496	67,254329	100,048232	99,977595	24,007046	33,717853	61,714989	44,842955	63,089728	36,218551	63,131714	38,665381	41,905984	49,832594	15,369658	24,311022	21,112533	27,022922	21,239354	24,954081	28,962848
500,00	99,998331	99,941236	68,470734	67,194003	100,000477	99,959290	24,041884	33,765289	61,651105	45,133922	63,065177	36,623347	63,095015	39,064762	42,176387	50,013709	15,603498	24,514554	21,324103	27,188849	21,459843	25,131750	29,085970
502,00	99,961996	99,961752	68,395019	67,123812	99,989539	100,004840	24,076079	33,803514	61,626989	45,443401	63,000488	37,015140	63,117635	39,493161	42,551291	50,234514	15,868986	24,749823	21,545261	27,382791	21,678573	25,394601	29,226109
504,00	100,042284	99,993724	68,361616	67,120290	100,084007	100,030315	24,114411	33,852547	61,627501	45,789823	63,053870	37,471747	63,134962	39,970988	42,979577	50,436449	16,151914	24,992968	21,795990	27,565360	21,914825	25,616723	29,323408
506,00	100,001419	99,983269	68,289834	67,028636	100,012302	100,018799	24,129736	33,926108	61,575580	46,069944	63,065392	37,936792	63,128418	40,438437	43,421149	50,602752	16,464344	25,227955	22,062311	27,767846	22,148119	25,852549	29,438949
508,00	100,074112	100,015748	68,250990	66,987234	100,086176	100,050151	24,158365	33,954903	61,607313	46,385589	63,080239	38,424569	63,165039	40,959167	43,872407	50,807220	16,752395	25,510225	22,293179	27,976257	22,413011	26,101875	29,566932
510,00	100,112903	99,983197	68,230009	66,910845	99,988210	99,957329	24,164774	33,955857	61,597908	46,692890	63,119352	38,927737	63,183331	41,451222	44,290131	50,987589	17,027053	25,772214	22,549009	28,148168	22,622746	26,326525	29,654416
512,00	100,071406	100,020003	68,129957	66,879296	100,022757	99,962485	24,206157	34,021872	61,533290	47,040519	63,080788	39,436910	63,186258	41,922605	44,705066	51,165521	17,354411	26,020750	22,765614	28,349882	22,882774	26,580611	29,764357
514,00	100,013220	99,984956	68,091273	66,806579	100,027370	100,008321	24,221464	34,076229	61,465180	47,381818	63,079864	39,982453	63,154507	42,474094	45,160666	51,278573	17,640291	26,325443	23,025912	28,558561	23,144037	26,803961	29,880035
516,00	99,987882	100,015306	68,004209	66,744375	100,033522	100,043559	24,259987	34,117275	61,421961	47,735527	63,044673	40,499622	63,159537	42,998064	45,580915	51,481473	17,962530	26,627791	23,253697	28,772447	23,401794	27,066046	30,005518
518,00	100,041986	100,016022	68,028909	66,718560	100,037372	99,998426	24,295071	34,130135	61,397457	48,075461	63,073289	41,140997	63,170797	43,543094	45,986453	51,666319	18,273474	26,930383	23,497713	28,958943	23,654145	27,318674	30,101198
520,00	100,057793	100,029480	67,993009	66,689378	100,024581	99,916804	24,303442	34,190387	61,381900	48,483974	63,098103	41,745088	63,193327	44,148406	46,445882	51,850671	18,606134	27,226520	23,760003	29,190737	23,932709	27,573642	30,206707
522,00	99,995130	100,057614	67,889857	66,636395	100,045061	99,977612	24,331452	34,237504	61,345851	48,869008	63,059211	42,403820	63,134718	44,738090	46,830881	52,026993	18,962596	27,544421	24,019431	29,417807	24,214229	27,823141	30,322185
524,00	99,971110	99,978644	67,887986	66,498208	100,066340	100,009096	24,374568	34,272197	61,331892	49,218246	63,077021	42,963254	63,196135	45,311409	47,254181	52,158618	19,327880	27,864125	24,325009	29,628283	24,484669	28,103557	30,435085
526,00	99,990517	100,027001	67,816371	66,491288	100,061035	100,039113	24,421939	34,329405	61,268950	49,630398	63,091183	43,638420	63,191086	45,925036	47,633535	52,358723	19,698451	28,187561	24,603501	29,840675	24,770308	28,359196	30,569938
528,00	99,995077	99,964052	67,738593	66,384906	100,018060	100,016594	24,456656	34,373015	61,164188	50,024980	63,124442	44,210806	63,174176	46,533418	48,042843	52,456158	20,063920	28,480676	24,894771	30,077383	25,046292	28,630546	30,653095
530,00	100,038862	99,981719	67,680240	66,365641	99,987483	100,004923	24,462405	34,431893	61,166579	50,393867	63,089991	44,846550	63,194174	47,133869	48,434991	52,631390	20,432895	28,769013	25,177285	30,287001	25,306678	28,917104	30,754155
532,00	99,991852	100,021660	67,633355	66,329116	100,037158	100,010121	24,496546	34,445930	61,085176	50,817841	63,165432	45,483953	63,243359	47,719860	48,840246	52,831835	20,804159	29,092497	25,458005	30,463737	25,595441	29,187438	30,875561
534,00	100,026417	99,982214	67,563623	66,277385	100,004637	99,996865	24,514785	34,513164	61,016458	51,176220	63,125938	46,091357	63,192618	48,332995	49,221322	52,963370	21,208933	29,342848	25,749007	30,658281	25,836408	29,425770	30,954263
536,00	100,074697	100,073016	67,607862	66,275805	100,023091	100,018573	24,541859	34,535763	61,013716	51,551455	63,215423	46,628022	63,176888	48,918951	49,604857	53,183240	21,590251	29,643822	26,023531	30,849683	26,095560	29,688248	31,059176
538,00	99,962616	100,072002	67,519087	66,190982	99,981707	100,002539	24,563499	34,606487	60,869551	51,924336	63,132429	47,139674	63,148999	49,404562	49,859971	53,318459	21,945727	29,950833	26,308694	31,054762	26,326540	29,940480	31,168202
540,00	99,937791	100,048852	67,418754	66,165733	99,981612	100,007141	24,603726	34,652966	60,777187	52,251279	63,075823	47,640783	63,121617	49,911606	50,178516	53,469181	22,289844	30,179963	26,552728	31,230232	26,551422	30,166736	31,290403
542,00	99,978620	100,078607	67,411554	66,095424	99,972224	99,969584	24,614526	34,656867	60,694051	52,562851	63,133240	48,126727	63,137114	50,363946	50,524986	53,586650	22,590894	30,438271	26,759657	31,398904	26,753110	30,392435	31,373858
544,00	100,017107	100,071621	67,398870	66,077596	99,982691	100,003958	24,674615	34,732610	60,611522	52,898037	63,144839	48,620397	63,152885	50,810379	50,866175	53,766930	22,900219	30,657533	26,975438	31,571442	26,949736	30,598614	31,493878
546,00	99,984246	99,944109	67,304307	65,963209	99,967265	99,973029	24,663755	34,761426	60,469073	53,178924	63,109249	49,038631	63,078511	51,220345	51,128691	53,866273	23,169714	30,910057	27,145401	31,722590	27,135074	30,782446	31,577051
548,00	100,011766	99,965185	67,304617	65,919113	100,045037	99,974841	24,688168	34,786692	60,369390	53,436649	63,137752	49,418235	63,035107	51,604855	51,381373	54,003179	23,383752	31,122375	27,292630	31,890517	27,275455	30,990198	31,667984
550,00	100,015652	100,009871	67,251325	65,888685	99,973661	99,956632	24,737340	34,835097	60,229790	53,719991	63,073647	49,828684	62,972313	51,947367	51,612198	54,119802	23,632711	31,304041	27,462700	32,029629	27,421424	31,163928	31,798738
552,00	99,960494	99,918199	67,176706	65,819365	100,060606	99,995685	24,762565	34,869713	60,066468	53,961796	63,027716	50,139588	62,896943	52,231878	51,847112	54,214019	23,805013	31,516033	27,602860	32,200155	27,566352	31,320286	31,892273
554,00	99,949765	99,952525	67,148721	65,798706	99,988919	99,982244	24,770473	34,936455	59,890944	54,254854	62,986457	50,435442	62,859792	52,502131	52,020293	54,377156	23,949663	31,687087	27,699128	32,348311	27,698907	31,464526	31,995335
556,00	100,007081	99,944746	67,092401	65,735900	100,036442	100,053620	24,809274	34,982759	59,777790	54,427856	62,975395	50,720948	62,789381	52,733606	52,237809	54,479557	24,042958	31,851536	27,773833	32,474181	27,796546	31,634974	32,109794
558,00	99,923861	99,938047	67,033178	65,662760	99,965179	100,022066	24,829063	35,025555	59,552592	54,609680	62,917995	50,915837	62,713003	52,934223	52,398109	54,609752	24,094610	31,971815	27,850196	32,616672	27,866691	31,723210	32,202652
560,00	99,993223	100,019920	67,007846	65,646952	100,024474	100,079107	24,867587	35,068434	59,401792	54,817891	62,875813	51,080525	62,641084	53,018826	52,537584	54,760659	24,154431	32,107162	27,886382	32,720307	27,918488	31,845707	32,278910
562,00	99,986094	99,986422	66,948146	65,624964	100,027490	100,015688	24,902827	35,102472	59,242725	54,901856	62,782204	51,221025	62,507224	53,104562	52,648187	54,873842	24,128823	32,187125	27,915573	32,791942	27,965829	31,913438	32,369819
564,00	99,974734	100,046575	66,920179	65,561414	99,997813	99,991781	24,917707	35,130063	59,004283	54,988277	62,715626	51,289874	62,453026	53,113270	52,737212	54,988974	24,065420	32,244042	27,875441	32,864487	27,967376	31,938070	32,472211
566,00	100,013483	99,940681	66,889405	65,479791	99,987292	100,034523	24,943885	35,208222	58,803475	55,023253	62,587553	51,252127	62,301975	53,067458	52,781868	55,024338	23,982757	32,281885	27,835432	32,954219	27,978247	31,971136	32,574767
568,00	100,000954	99,987620	66,836947	65,486145	100,037122	100,068569	24,974114	35,237882	58,593649	55,013931	62,519026	51,243097	62,175220	53,019005	52,833313	55,124402	23,898511	32,338169	27,788344	33,020607	27,957910	31,998736	32,656926
570,00	99,926829	99,993014	66,737616	65,422714	99,979109	99,999183	24,978022	35,259420	58,307707	55,035645	62,389010	51,205546	62,011915	52,909034	52,828634	55,240589	23,736836	32,309154	27,687263	33,053121	27,901796	31,991807	32,732028
572,00	100,011051	99,974817	66,759431	65,377271	99,946290	100,065601	25,026512	35,329688	58,131599	54,960805	62,297428	51,032847	61,921191	52,725488	52,858001	55,278116	23,563910	32,293236	27,606991	33,132780	27,840960	32,006344	32,842472
574,00	99,976075	99,942100	66,728139	65,313047	99,969637	100,009227	25,045270	35,353187	57,865256	54,907143	62,168092	50,924778	61,758590	52,553618	52,812177	55,354434	23,400411	32,287970	27,489114	33,144534	27,781734	31,963259	32,896256
576,00	99,957001	99,994016	66,715354	65,274185	99,987572	100,023222	25,068334	35,409257	57,679337	54,857850	62,059897	50,740367	61,585677	52,386290	52,804881	55,434829	23,215298	32,276055	27,367896	33,173865	27,710617	31,947303	32,983458
578,00	99,955249	100,076044	66,619456	65,247488	99,957663	99,974108	25,122851	35,432348	57,434320	54,786462	62,002426	50,636929	61,473024	52,230662	52,765578	55,512822	23,047422	32,232583	27,285007	33,190155	27,624044	31,922579	33,063069
580,00	99,944776	100,005484	66,590452	65,176946	100,015461	100,034249	25,128964	35,494122	57,176644	54,757684	61,847180	50,463790	61,321843	52,035105	52,759802	55,547959	22,877447	32,210204	27,166837	33,233747	27,559432	31,902757	33,160436
582,00	99,988973	100,036061	66,586286	65,146494	99,945426	100,022173	25,163728	35,517022	56,957334	54,718876	61,771071	50,346702	61,192888	51,888490	52,733052	55,611736	22,706050	32,200658	27,088523	33,251372	27,462888	31,882966	33,211595
584,00	99,989474	100,031507	66,542554	65,125549	99,978346	100,043261	25,172645	35,561600	56,772810	54,653054	61,689544	50,206983	61,097324	51,737857	52,751344	55,628777	22,539124	32,215348	26,997066	33,302474	27,396223	31,876594	33,276930
586,00	99,999219	100,070798	66,490436	65,065771	100,007331	100,061786	25,205174	35,618064	56,556457	54,656863	61,599976	50,135946	60,954976	51,636273	52,725130	55,699986	22,404090	32,226539	26,917595	33,334213	27,355388	31,876254	33,362499
588,00	99,981064	100,060880	66,452050	64,993072	99,953437	100,001121	25,215366	35,642707	56,330925	54,632902	61,491698	50,060290	60,825509	51,486450	52,721661	55,762672	22,272104	32,224944	26,821792	33,373141	27,296343	31,874567	33,417493
590,00	99,982816	100,029004	66,413230	64,960080	100,018334	100,002301	25,245765	35,666123	56,113309	54,622811	61,416340	49,984655	60,667431	51,373166	52,715099	55,784124	22,137797	32,263568	26,753673	33,398938	27,256864	31,911922	33,487171
592,00	100,023079	99,987680	66,392785	64,896065	100,013292	100,029397	25,280565	35,706347	55,977589	54,608744	61,378711	49,921376	60,594308	51,314759	52,791256	55,816889	22,051574	32,298976	26,723173	33,483037	27,219212	31,946284	33,567324
594,00	99,972183	100,029850	66,300738	64,859688	99,980676	99,990690	25,289810	35,727397	55,806434	54,609162	61,242390	49,854615	60,428923	51,246274	52,732843	55,847734	21,959229	32,332283	26,674676	33,509958	27,194259	31,946903	33,619118
596,00	99,969262	100,055516	66,260999	64,818329	100,022745	100,026929	25,346297	35,778609	55,605060	54,673779	61,181343	49,863765	60,339040	51,225507	52,733523	55,911797	21,882898	32,374132	26,646376	33,556667	27,171797	31,983978	33,687192
598,00	99,983996	100,030041	66,227031	64,791942	100,025117	99,978346	25,360098	35,818967	55,457819	54,680997	61,088657	49,842203	60,226256	51,158708	52,775013	55,934405	21,795984	32,409126	26,602793	33,613244	27,160954	32,005557	33,740380
600,00	99,980128	100,018299	66,178393	64,767748	100,027204	100,032711	25,388038	35,866883	55,292624	54,670411	60,995317	49,772015	60,106266	51,102096	52,733678	55,961168	21,739730	32,444501	26,562074	33,659312	27,159160	32,043803	33,812869
602,00	100,003541	100,006568	66,163194	64,695650	100,016963	100,052142	25,390792	35,904443	55,191863	54,636639	60,946357	49,671286	60,047609	50,971538	52,731133	56,008101	21,655564	32,476979	26,519895	33,705339	27,094427	32,069397	33,880883
604,00	99,946958	99,976659	66,109377	64,614677	99,951643	100,060833	25,429341	35,930493	55,058193	54,564255	60,835809	49,525270	59,953803	50,782871	52,687413	56,019765	21,534151	32,436788	26,462203	33,710280	27,067587	32,035515	33,938867
606,00	99,947512	100,023687	66,024733	64,615548	100,005412	100,041473	25,439259	35,967150	54,919118	54,426932	60,736227	49,323022	59,866756	50,582731	52,581406	55,981559	21,441686	32,411128	26,394153	33,720911	27,011564	31,998825	33,979413
608,00	100,019407	100,004959	66,044289	64,538622	99,987257	99,991286	25,462848	36,005601	54,841375	54,219794	60,665333	49,022174	59,746951	50,315541	52,516848	55,978239	21,301329	32,362053	26,324025	33,715108	26,931879	31,957862	34,039176
610,00	99,954724	99,991333	65,985799	64,496386	99,977624	100,032294	25,479701	36,060274	54,683441	54,021174	60,583693	48,727217	59,649312	50,011879	52,347130	55,990553	21,152535	32,265532	26,205546	33,690122	26,845303	31,902608	34,137905
612,00	100,032699	99,909693	65,967160	64,439422	99,961227	100,007856	25,515836	36,083382	54,619598	53,756005	60,486734	48,419589	59,533638	49,664342	52,198398	55,961561	21,020088	32,146281	26,121125	33,641252	26,765952	31,827259	34,170631
614,00	99,936330	99,977815	65,910208	64,420718	100,005674	100,033605	25,568733	36,128300	54,501939	53,579837	60,379612	48,096776	59,406042	49,325973	52,024376	55,982900	20,877485	32,044074	26,039439	33,621347	26,689082	31,756249	34,212777
616,00	99,948227	99,913353	65,834773	64,379364	100,028586	99,975777	25,572920	36,147535	54,363877	53,336751	60,224891	47,774947	59,288710	49,018872	51,907092	55,989224	20,787962	31,918737	25,993523	33,600274	26,626429	31,695431	34,293973
618,00	100,005269	99,973565	65,825480	64,299095	100,031781	100,014651	25,610703	36,190310	54,337943	53,119051	60,194093	47,512454	59,227258	48,710915	51,774234	55,992079	20,722285	31,841281	25,940889	33,564878	26,593244	31,616458	34,313956
620,00	99,951339	99,991989	65,777040	64,292127	99,982125	100,045192	25,642437	36,212429	54,292011	52,891934	60,125053	47,256297	59,197164	48,454010	51,654691	55,987567	20,656122	31,779793	25,926849	33,560121	26,556185	31,604218	34,368429
622,00	99,993896	100,015807	65,736109	64,261800	100,048232	100,025678	25,662106	36,252984	54,307431	52,779096	60,061055	47,069082	59,173858	48,283264	51,623058	55,989105	20,654830	31,712890	25,936764	33,529750	26,593739	31,542519	34,445235
624,00	100,020444	100,029898	65,662849	64,183307	99,983251	99,997228	25,680119	36,314580	54,317158	52,624893	59,991592	46,871093	59,123462	48,106748	51,546204	56,005752	20,685014	31,692654	25,964081	33,541906	26,605353	31,557602	34,491834
626,00	99,944353	99,963135	65,629435	64,148283	100,013459	100,037646	25,707093	36,325893	54,361731	52,543038	59,928894	46,769685	59,128851	47,985604	51,507795	55,978733	20,764199	31,671828	26,024950	33,568054	26,666725	31,559682	34,552738
628,00	99,983168	99,996603	65,638179	64,090514	100,058830	99,933589	25,732410	36,354679	54,447472	52,453959	59,916085	46,683568	59,131408	47,928610	51,512259	56,034786	20,901181	31,661916	26,136222	33,574525	26,746717	31,551060	34,603429
630,00	100,000489	100,046360	65,559077	64,112180	100,050795	99,919337	25,752553	36,401004	54,571241	52,450299	59,892035	46,694335	59,129119	47,916424	51,554644	56,040305	21,035749	31,704399	26,288453	33,661166	26,866472	31,651044	34,678996
632,00	100,042689	100,026155	65,548372	64,062989	99,948084	100,007510	25,772542	36,448339	54,748356	52,424502	59,921575	46,727744	59,165746	47,994727	51,616323	56,057435	21,234745	31,782755	26,437014	33,699054	26,995766	31,725150	34,714353
634,00	99,956012	99,994528	65,493423	64,027768	100,019753	99,969816	25,820202	36,475593	54,875499	52,455437	59,925687	46,796620	59,207577	48,073700	51,678133	56,052011	21,510965	31,856638	26,685590	33,771771	27,178875	31,808388	34,793508
636,00	99,982095	99,981779	65,479332	63,941860	100,074649	100,005007	25,849098	36,536103	55,156016	52,486980	59,960210	46,937531	59,303826	48,204502	51,830310	56,103164	21,813124	31,959319	26,923561	33,849570	27,378219	31,954291	34,852970
638,00	99,943316	99,954927	65,423280	63,899690	100,014091	99,951917	25,854114	36,558855	55,344605	52,592713	59,946805	47,130358	59,364158	48,409316	51,930344	56,089509	22,108954	32,082233	27,155012	33,930102	27,592534	32,085499	34,899539
640,00	99,970186	100,048661	65,385920	63,938069	100,071740	100,013852	25,904256	36,596721	55,564034	52,708209	60,053164	47,348040	59,518588	48,677236	52,099532	56,195027	22,451267	32,232746	27,432230	34,031299	27,848345	32,275215	34,952986
642,00	100,017118	100,095177	65,321314	63,898373	100,098705	100,027370	25,923735	36,658329	55,821615	52,747017	60,106361	47,514734	59,661931	48,851889	52,192301	56,189311	22,796002	32,365257	27,726346	34,159091	28,071693	32,437286	35,046402
644,00	99,973714	100,063229	65,335864	63,838685	100,059021	99,942970	25,896588	36,644581	56,067717	52,727658	60,227746	47,622433	59,800994	48,985672	52,337635	56,154746	23,088008	32,429710	27,957529	34,210384	28,288656	32,559642	35,058463
646,00	99,935859	99,954331	65,288836	63,745308	100,101185	99,990302	25,944144	36,695832	56,243211	52,636814	60,264093	47,670606	59,903812	49,037716	52,428991	56,151205	23,379543	32,510760	28,208798	34,299955	28,516906	32,712728	35,129312
648,00	99,976277	100,037718	65,237498	63,734341	100,078714	100,036085	25,972393	36,739060	56,466097	52,504671	60,290629	47,585982	60,010922	49,010041	52,396315	56,126273	23,567000	32,522497	28,380322	34,283403	28,676668	32,787201	35,174257
650,00	99,902177	100,040317	65,172940	63,688129	100,100958	100,021589	26,024166	36,772901	56,591296	52,228451	60,310394	47,354484	60,105991	48,837671	52,326167	56,132483	23,714626	32,441121	28,500310	34,290856	28,743502	32,824022	35,235655
652,00	99,949074	100,054395	65,165091	63,630474	100,061095	100,034392	26,034489	36,816120	56,772125	51,785356	60,303771	46,900925	60,147166	48,461342	52,128071	56,046557	23,768704	32,269296	28,576687	34,200203	28,787443	32,781383	35,270873
654,00	99,928302	100,040174	65,133685	63,637435	100,024581	100,017190	26,057553	36,828732	56,965822	51,096720	60,304302	46,163663	60,184181	47,846374	51,756877	55,952448	23,740664	31,971309	28,562039	34,026805	28,741369	32,641381	35,294971
656,00	99,941140	100,012708	65,096670	63,562173	100,010979	99,964887	26,083806	36,873397	57,109231	50,345987	60,244298	45,224473	60,206914	47,048572	51,268840	55,837005	23,598233	31,528720	28,420562	33,796129	28,613147	32,375422	35,304925
658,00	100,020909	99,997634	65,102309	63,485551	99,967897	100,012505	26,102063	36,925271	57,297820	49,321139	60,159969	44,002166	60,168135	45,900780	50,621182	55,645162	23,236541	30,975452	28,182912	33,468491	28,340113	32,072699	35,348400
660,00	99,982947	100,020409	65,018308	63,465434	100,085461	100,002909	26,136425	36,992308	57,369095	48,206180	60,016471	42,583564	60,075057	44,635224	49,757212	55,512148	22,809395	30,316472	27,867410	33,072066	27,951607	31,642914	35,369241
662,00	99,963397	99,990225	64,985389	63,391948	100,055981	99,958694	26,169440	37,011918	57,495934	47,023928	59,822774	40,995991	59,981084	43,155974	48,789823	55,298263	22,207770	29,580724	27,403614	32,593927	27,530026	31,152385	35,380477
664,00	99,964750	99,998170	64,916819	63,350880	100,038064	99,907792	26,190618	37,012160	57,518446	45,855200	59,634811	39,452353	59,861892	41,713700	47,808522	55,071485	21,545202	28,835404	26,902917	32,137692	27,022725	30,645329	35,411292
666,00	99,957436	99,957103	64,899117	63,298291	100,019610	100,007033	26,187286	37,056386	57,531404	44,709283	59,444976	37,967032	59,672832	40,251723	46,890104	54,921043	20,864403	28,105992	26,386312	31,677198	26,506782	30,140510	35,424745
668,00	100,010300	99,998510	64,868718	63,279635	100,051737	99,915063	26,243249	37,097400	57,552755	43,779591	59,263146	36,597770	59,602237	39,001673	46,052825	54,746711	20,275241	27,464393	25,964645	31,223810	26,054156	29,677796	35,440609
670,00	100,009763	99,962026	64,852905	63,243008	99,988467	99,997878	26,241785	37,126550	57,546729	43,019268	59,201455	35,551041	59,490258	38,029706	45,398307	54,613429	19,807507	26,987293	25,556886	30,935693	25,703144	29,347491	35,457173
672,00	99,930143	99,932122	64,778066	63,205397	100,072658	99,939054	26,297623	37,152055	57,478499	42,458612	59,024280	34,763300	59,367323	37,316239	44,847715	54,506844	19,454989	26,574808	25,319129	30,712709	25,430042	29,090184	35,489595
674,00	99,911875	99,987978	64,691079	63,196588	100,053024	99,962598	26,296905	37,216863	57,506275	42,199767	58,967930	34,279239	59,331161	36,832505	44,514233	54,545373	19,244276	26,375297	25,139317	30,590960	25,271326	28,943515	35,545585
676,00	99,895102	99,995351	64,693749	63,120252	100,023127	100,043213	26,311553	37,254038	57,472903	42,033845	58,886933	33,941260	59,279263	36,496583	44,284698	54,532927	19,134316	26,225349	25,068101	30,565304	25,193328	28,860646	35,597813
678,00	100,032008	99,965090	64,714742	63,090795	100,047719	100,014544	26,347888	37,309802	57,570946	42,076510	58,924901	33,848092	59,311652	36,326325	44,300783	54,499751	19,148512	26,243925	25,126907	30,581743	25,222209	28,850585	35,638481
680,00	99,953753	99,946195	64,670336	63,032222	100,032747	99,958521	26,361182	37,323615	57,558501	42,260167	58,960986	34,067667	59,340423	36,468574	44,395465	54,564518	19,346388	26,378688	25,258985	30,725694	25,415587	28,958008	35,688102
682,00	99,978960	99,894160	64,613742	62,979209	100,045800	99,981463	26,405537	37,376249	57,667255	42,711022	58,963150	34,646106	59,420073	36,966524	44,884726	54,727060	19,771002	26,706010	25,602388	30,982968	25,720748	29,222906	35,786897
684,00	99,977666	99,834067	64,625329	62,913018	100,071740	99,998808	26,418406	37,391728	57,763171	43,365219	59,073007	35,569623	59,548241	37,890527	45,592073	54,827088	20,423990	27,252769	26,145670	31,368023	26,244736	29,678312	35,874733
686,00	100,072050	99,957192	64,615744	62,988645	99,989527	100,014353	26,432672	37,437022	58,005822	44,316497	59,280801	36,990318	59,785777	39,221507	46,619025	55,101442	21,336862	27,957189	26,835519	31,892204	26,903817	30,274597	35,957992
688,00	99,936122	99,992633	64,518952	62,947279	99,947435	100,000560	26,463073	37,487707	58,104450	45,513162	59,375447	38,696003	59,927344	40,962681	47,806895	55,295807	22,459404	28,871515	27,706644	32,500038	27,755854	31,036144	36,014974
690,00	100,029576	99,983841	64,532310	62,874550	99,957502	100,036311	26,490283	37,527171	58,407545	46,886224	59,708560	40,673620	60,250092	42,953748	49,137342	55,490166	23,804401	29,867774	28,719571	33,226570	28,711769	31,904104	36,119789
692,00	100,036407	99,922144	64,506376	62,858289	99,963707	100,004458	26,481485	37,533370	58,711571	48,351315	59,909302	42,851239	60,530066	45,010453	50,516236	55,768752	25,198042	30,995622	29,745272	33,947167	29,724061	32,770461	36,227944
694,00	99,929011	99,924487	64,406860	62,803626	99,987572	99,999124	26,555374	37,552819	58,985883	49,804306	60,150331	44,896701	60,757542	46,986470	51,720119	55,964512	26,594996	32,008761	30,740613	34,638032	30,623114	33,606389	36,281991
696,00	99,937582	100,006258	64,390153	62,771267	100,028265	100,026071	26,570866	37,589821	59,267950	51,302427	60,379171	46,957645	61,058378	48,920023	52,841920	56,171179	27,956045	33,117625	31,700033	35,294497	31,530744	34,379059	36,374077
698,00	100,006914	100,051558	64,460373	62,820518	100,035524	100,071740	26,569164	37,668186	59,613431	52,599776	60,630625	48,849756	61,328572	50,575495	53,852177	56,360763	29,143092	34,094569	32,546714	35,884458	32,307076	35,064679	36,480540
700,00	99,962598	99,952173	64,355159	62,673903	100,017738	100,039065	26,595977	37,704727	59,784460	53,671807	60,718131	50,313073	61,469692	51,835680	54,541099	56,397295	30,120438	34,852588	33,228728	36,410835	32,938409	35,635966	36,530694
702,00	100,068021	100,001192	64,353025	62,678391	99,953789	100,033224	26,618272	37,729827	60,030866	54,593503	60,875553	51,600873	61,727130	52,913636	55,212659	56,537718	31,038165	35,552701	33,780533	36,806858	33,487433	36,120284	36,575300
704,00	99,975222	99,966449	64,339364	62,654865	99,989355	99,972945	26,649198	37,753651	60,114688	55,380630	61,031014	52,686340	61,815327	53,880483	55,682427	56,597304	31,802359	36,122504	34,270737	37,159726	33,904785	36,481971	36,635363
706,00	99,969447	99,942780	64,283973	62,636560	100,036359	100,054312	26,665816	37,768802	60,283279	56,001425	61,072797	53,562862	61,915600	54,549408	56,036997	56,697011	32,465428	36,621732	34,655145	37,425998	34,256995	36,814803	36,724392
708,00	99,996829	99,958670	64,298910	62,525570	99,960363	100,071573	26,679036	37,843072	60,501552	56,445920	61,179858	54,224437	61,969715	55,052108	56,381583	56,720704	33,006173	36,993787	35,005191	37,692979	34,612367	37,127140	36,801043
710,00	99,987167	100,072587	64,208829	62,646526	99,950719	100,049555	26,697460	37,867722	60,539162	56,918031	61,196345	54,842454	62,025839	55,674767	56,593782	56,850344	33,530986	37,300897	35,279587	37,859491	34,880298	37,328207	36,838010
712,00	99,994850	100,014746	64,219636	62,544119	100,037301	100,007498	26,745129	37,873727	60,652930	57,230812	61,261195	55,307323	62,184978	56,047648	56,849414	56,874108	34,032404	37,601772	35,562667	38,052359	35,129181	37,540653	36,876079
714,00	99,955142	100,000679	64,219004	62,529469	100,026047	100,085258	26,769093	37,966356	60,709774	57,517970	61,280489	55,755836	62,208742	56,456596	57,019371	56,918222	34,513667	37,844193	35,802242	38,226920	35,374433	37,765819	36,952001
716,00	99,946123	100,010943	64,113611	62,561649	100,018454	100,054944	26,801163	37,955776	60,828692	57,810539	61,299396	56,187761	62,292045	56,768245	57,209313	56,926167	34,898728	38,109642	36,039555	38,339993	35,573795	37,903327	36,982241
718,00	100,032699	100,029671	64,164430	62,585276	100,042665	100,040340	26,809713	37,970388	60,846972	58,048934	61,383575	56,516838	62,290508	57,108146	57,350224	56,980759	35,221976	38,234463	36,248699	38,458434	35,754353	38,040265	37,013739
720,00	99,994016	99,995077	64,094144	62,539124	100,127304	100,077009	26,845932	38,026309	61,010665	58,201712	61,453420	56,813520	62,319440	57,385689	57,473022	57,035208	35,624367	38,489667	36,415505	38,603196	35,924962	38,235107	37,088349
722,00	100,049508	100,050759	64,184922	62,479961	99,969864	100,040805	26,823303	38,050988	60,983562	58,390772	61,522281	57,098228	62,452751	57,641137	57,595938	57,113123	35,951504	38,637954	36,571103	38,682446	36,093864	38,362467	37,146255
724,00	99,997115	100,039279	64,165092	62,562120	100,062907	100,013363	26,852795	38,076010	61,131918	58,578932	61,615258	57,401949	62,449914	57,901269	57,793009	57,175654	36,163417	38,786638	36,709195	38,762689	36,216182	38,488251	37,168562
726,00	99,945760	100,084329	64,089292	62,597901	100,066042	99,982095	26,858309	38,104621	61,153132	58,757818	61,556292	57,617795	62,538028	58,072859	57,867116	57,216042	36,467293	38,880810	36,896312	38,851711	36,390498	38,614959	37,226510
728,00	100,067627	99,983817	64,216799	62,504214	100,098717	100,002992	26,911753	38,159436	61,308080	58,819026	61,705226	57,756633	62,622440	58,226067	58,022678	57,241935	36,676621	39,000148	37,019408	38,922346	36,533850	38,740033	37,232444
730,00	99,999833	99,953055	64,138502	62,467951	100,018191	99,964613	26,921457	38,099116	61,228079	58,963841	61,671889	57,947451	62,601620	58,375537	58,048201	57,218289	36,840656	39,133948	37,140360	39,017582	36,583585	38,789916	37,272558
732,00	100,010455	99,927390	64,119637	62,524217	99,975085	99,995643	26,918378	38,146740	61,329573	59,071392	61,705869	58,154172	62,698603	58,540398	58,134276	57,262892	36,993724	39,215460	37,218207	39,050159	36,737478	38,902679	37,255996
734,00	99,891251	99,893451	64,128786	62,520111	100,181139	99,984431	26,936123	38,199306	61,347771	59,167767	61,752188	58,259779	62,692797	58,696449	58,249640	57,329410	37,187287	39,256883	37,346363	39,115036	36,792362	39,066210	37,356672
736,00	99,933106	99,891245	64,211434	62,495017	100,048316	99,985147	26,961786	38,228923	61,477995	59,243935	61,838353	58,403301	62,798393	58,819407	58,270544	57,364112	37,319160	39,394292	37,405768	39,210355	36,869320	39,105663	37,393352
738,00	99,952811	99,907148	64,144671	62,481016	100,027418	99,997348	26,958436	38,182950	61,368269	59,217662	61,817837	58,484387	62,730509	58,872968	58,358103	57,453632	37,402213	39,451963	37,432450	39,244002	36,966646	39,108369	37,387136
740,00	100,013506	99,906832	64,293027	62,581110	99,958116	100,051963	27,015969	38,307840	61,478889	59,380180	61,934704	58,681738	62,940860	59,057283	58,512002	57,572985	37,479505	39,558133	37,579894	39,367610	37,017405	39,242706	37,505263
742,00	99,990934	99,914968	64,230019	62,512779	100,209939	99,990082	27,061641	38,315675	61,567193	59,505129	61,945802	58,766103	62,921947	59,109581	58,590037	57,662541	37,683252	39,617661	37,653640	39,372662	37,170845	39,331859	37,551141
744,00	99,943495	99,871260	64,232200	62,608039	100,031674	100,041044	27,037096	38,332894	61,575854	59,626907	61,967295	58,919007	62,956572	59,281647	58,642215	57,686675	37,709495	39,672336	37,681419	39,398095	37,180489	39,397109	37,578470
746,00	100,117397	99,898076	64,329618	62,575412	100,014782	99,976867	27,032617	38,328743	61,623353	59,698188	62,056291	59,009641	63,013017	59,334844	58,714861	57,786655	37,771615	39,692006	37,706992	39,466447	37,200809	39,434171	37,586844
748,00	100,028682	99,981177	64,368957	62,711024	100,107419	100,090492	27,130854	38,425529	61,759782	59,740686	62,165481	59,112310	63,014412	59,434760	58,809882	57,803720	37,887678	39,780048	37,863690	39,571607	37,320465	39,525431	37,669903
750,00	100,007617	100,016892	64,514214	62,788022	100,135338	100,125432	27,095565	38,453278	61,852413	59,866482	62,180763	59,259230	63,130420	59,535170	58,964950	57,906103	37,997153	39,836636	37,963033	39,633164	37,439868	39,591685	37,689626
752,00	100,010502	100,019205	64,438730	62,888122	100,082755	100,029087	27,151325	38,491723	61,913055	60,010940	62,203664	59,404844	63,128054	59,698528	59,002584	58,023506	38,031179	39,910662	37,952861	39,705718	37,437257	39,657059	37,792617
754,00	99,933469	100,065684	64,465898	62,906343	100,003052	100,027776	27,150053	38,533631	61,980695	60,107964	62,252676	59,452671	63,185900	59,827691	59,069431	58,132273	38,048607	39,928713	37,940893	39,717671	37,450939	39,705718	37,751734
756,00	100,039744	100,060582	64,571071	62,921041	100,052810	100,095260	27,193865	38,582858	62,045306	60,162735	62,290454	59,513056	63,210058	59,811640	59,106433	58,206230	38,180655	40,001801	38,066941	39,791888	37,615478	39,756939	37,904489
758,00	99,927908	99,971682	64,538836	63,043493	99,944931	100,097287	27,221540	38,620603	62,011963	60,213655	62,323993	59,647107	63,299179	59,855181	59,174424	58,207297	38,224316	40,065464	38,099298	39,869857	37,544581	39,873612	37,918171
760,00	99,873984	99,913061	64,588845	63,077313	100,116467	99,823016	27,265835	38,582551	61,985731	60,345328	62,469983	59,674811	63,322425	59,949964	59,260345	58,330053	38,301650	40,134829	38,160163	39,904749	37,642652	39,863768	37,916166
762,00	100,052083	100,091732	64,642173	63,095951	100,092685	100,137043	27,302414	38,714713	62,112528	60,372072	62,439764	59,713441	63,437068	60,096055	59,313959	58,401692	38,347852	40,246174	38,254124	39,942643	37,695396	39,955252	38,074359
764,00	99,973661	99,900085	64,794767	63,079846	100,167871	99,863845	27,311388	38,705838	62,111539	60,430998	62,574619	59,783494	63,472956	60,101199	59,501129	58,451855	38,408166	40,188384	38,294810	39,899099	37,765807	39,920408	38,063148
766,00	99,932760	99,985731	64,710021	63,188273	100,096273	99,892747	27,312493	38,607556	62,130404	60,450733	62,528634	59,922892	63,516021	60,226172	59,501302	58,530825	38,441044	40,206540	38,265532	39,968741	37,781471	39,919871	38,015744
768,00	99,960780	99,980766	64,757019	63,202399	99,998891	100,098884	27,296793	38,764915	62,244374	60,592198	62,611604	59,924644	63,526529	60,254592	59,535611	58,555102	38,502094	40,365872	38,339466	40,068963	37,791267	40,064707	38,178590
770,00	99,934500	99,982417	64,884704	63,229030	100,104916	100,123131	27,325749	38,798907	62,386787	60,627913	62,727785	60,000086	63,640225	60,330987	59,685969	58,622354	38,566858	40,343145	38,374987	40,148944	37,891397	40,111110	38,187295
772,00	99,946111	100,056064	64,917827	63,350701	100,081670	99,968660	27,392969	38,798526	62,365419	60,805583	62,740439	60,135782	63,601655	60,527545	59,711969	58,821601	38,635981	40,419221	38,413554	40,185750	37,915221	40,182328	38,201171
774,00	99,942094	99,936110	64,886248	63,412476	100,060093	100,016963	27,453116	38,834023	62,495226	60,796481	62,741184	60,199124	63,749933	60,478616	59,807044	58,877277	38,621557	40,389922	38,500413	40,228084	37,983409	40,231183	38,332683
776,00	99,938154	99,878532	65,042901	63,409048	100,051224	99,958265	27,444011	38,885728	62,439704	60,908604	62,800622	60,161954	63,753867	60,521573	59,868938	58,847940	38,646233	40,464714	38,558638	40,275782	38,048708	40,279138	38,289157
778,00	99,924982	99,901217	64,985746	63,464391	99,883926	100,066948	27,431691	38,953677	62,558824	60,936564	62,902004	60,273921	63,884985	60,644501	60,000193	58,992398	38,681912	40,474084	38,503307	40,345779	37,992221	40,306082	38,345471
780,00	100,026035	99,962640	65,058744	63,496214	100,098443	100,000608	27,491730	38,969290	62,550080	60,903454	62,987524	60,348302	63,812000	60,662872	60,057181	59,030014	38,788003	40,613088	38,685215	40,368095	38,104430	40,366784	38,410550
782,00	99,918628	100,018835	65,080529	63,581783	100,035369	99,975187	27,476341	39,017355	62,642908	61,045676	62,973338	60,373092	63,970792	60,775346	60,098845	59,145802	38,757810	40,665644	38,684195	40,366378	38,133708	40,335011	38,406891
784,00	99,984413	99,923116	65,207964	63,652456	100,015008	99,949884	27,476263	38,932392	62,773448	61,084247	63,022643	60,529357	63,899690	60,750020	60,210836	59,249783	38,821298	40,616530	38,722953	40,364134	38,188353	40,302622	38,498589
786,00	100,033128	100,016248	65,266126	63,699156	100,123191	100,008893	27,581167	39,061221	62,818754	61,040926	63,033915	60,514641	63,920254	60,665458	60,191482	59,209979	38,854370	40,675509	38,821134	40,444171	38,216773	40,440437	38,482130
788,00	99,999982	99,893934	65,209901	63,731754	100,067973	100,088990	27,594993	39,095441	62,789941	61,318976	63,090754	60,587424	64,000440	60,827118	60,324496	59,428841	38,851470	40,768391	38,845339	40,489465	38,252890	40,472656	38,581643
790,00	100,037146	99,974960	65,260363	63,628310	100,089753	100,056303	27,639672	39,115664	62,863129	61,257434	63,152379	60,522389	63,995457	60,754144	60,369879	59,324533	38,957348	40,819314	38,885385	40,614310	38,297385	40,491402	38,628051
792,00	99,902689	99,948740	65,268934	63,726074	100,070977	99,935651	27,627996	39,112481	62,850970	61,360335	63,207716	60,576916	64,152467	60,858798	60,407323	59,323561	39,006937	40,815610	38,801605	40,634546	38,349196	40,514582	38,618171
794,00	99,914831	100,004458	65,329498	63,735062	100,042784	100,050437	27,632549	39,265659	62,811571	61,342293	63,198388	60,658932	64,115405	60,927516	60,334963	59,532887	39,011365	40,853027	38,971156	40,740433	38,374966	40,666005	38,704875
796,00	99,974650	99,925977	65,419078	63,714159	100,050342	100,125623	27,676368	39,258668	62,940401	61,467874	63,282496	60,723990	64,048529	60,826015	60,375416	59,556603	39,002937	40,970609	38,983327	40,756112	38,423121	40,663165	38,730910
798,00	99,951917	99,932420	65,392321	63,931119	100,166106	100,072265	27,723762	39,302346	62,926376	61,477041	63,316238	60,631406	64,162064	60,862708	60,463929	59,607780	39,069077	41,028005	39,091769	40,694886	38,522649	40,720940	38,864052
800,00	100,001895	100,035155	65,390569	63,868845	99,979854	99,936259	27,743489	39,318386	63,017422	61,497420	63,401645	60,707414	64,129239	60,962433	60,541493	59,626544	38,994676	41,026196	38,992962	40,776241	38,413656	40,712401	38,797778
